# THALASSA - CARTESIAN COORDINATES                                                                                                                                                                      
#================================================================================================================================================================                                       
#                  MJD                 X [km]                 Y [km]                 Z [km]                VX [km]                VY [km]                VZ [km]                                        
 5.904300000000000E+04  7.628000000000000E+03  0.000000000000000E+00  0.000000000000000E+00  0.000000000000000E+00  7.228755662137984E+00  0.000000000000000E+00
 5.904400000000000E+04  7.080321523546198E+03  2.837263312793339E+03 -1.375395074010482E-02 -2.691151824979024E+00  6.709506687820626E+00  8.027037109727507E-06
 5.904500000000000E+04  5.515864165169750E+03  5.266932627619510E+03 -1.862137915903910E-02 -4.996284876710201E+00  5.226016861068731E+00  3.128783958041959E-05
 5.904600000000000E+04  3.159170203450374E+03  6.939758054806581E+03 -4.826421816409365E-03 -6.584316147823955E+00  2.990562672601936E+00  6.238841821395316E-05
 5.904700000000000E+04  3.487231957069030E+02  7.614931471341040E+03  3.167267327307852E-02 -7.226404381156921E+00  3.234713346318958E-01  8.958014342899156E-05
 5.904800000000000E+04 -2.511431698119563E+03  7.194804217259892E+03  8.748683390520480E-02 -6.828988660336543E+00 -2.392322211058225E+00  1.001768770606870E-04
 5.904900000000000E+04 -5.009616287529754E+03  5.739203506594457E+03  1.521530888152001E-01 -5.447749611319417E+00 -4.765943575188229E+00  8.431558166214057E-05
 5.905000000000000E+04 -6.785761596466027E+03  3.457170103655303E+03  2.104017896663016E-01 -3.280258937431040E+00 -6.454797676852655E+00  3.804001093836691E-05
 5.905100000000000E+04 -7.583443483636551E+03  6.771537869555393E+02  2.456740624641161E-01 -6.380879557889765E-01 -7.214256338652329E+00 -3.504811699083191E-05
 5.905200000000000E+04 -7.287134456691503E+03 -2.200165727840046E+03  2.440049625842965E-01  2.097836459676831E+00 -6.933500339124800E+00 -1.238439628351288E-04
 5.905300000000000E+04 -5.939167803104796E+03 -4.759685069148243E+03  1.975210876168518E-01  4.532284448815917E+00 -5.652097481075726E+00 -2.113465246900593E-04
 5.905400000000000E+04 -3.733833367060449E+03 -6.631939554995308E+03  1.070718859149483E-01  6.313173691673548E+00 -3.554674914477080E+00 -2.775232866448571E-04
 5.905500000000000E+04 -9.893736240833032E+02 -7.546652078001739E+03 -1.641496762498517E-02  7.182926181298307E+00 -9.442952468157431E-01 -3.031995792810963E-04
 5.905600000000000E+04  1.898079158994856E+03 -7.371910581685795E+03 -1.524372522364326E-01  7.016059245283679E+00  1.801625352909381E+00 -2.746332024448678E-04
 5.905700000000000E+04  4.511893359619475E+03 -6.133219377629647E+03 -2.738788026628569E-01  5.837373174889994E+00  4.286330770571582E+00 -1.879334542366699E-04
 5.905800000000000E+04  6.475241372438456E+03 -4.009652414331551E+03 -3.524506472203814E-01  3.818049806051354E+00  6.151457973644314E+00 -5.194179705646577E-05
 5.905900000000000E+04  7.505494386434232E+03 -1.307736240007693E+03 -3.655900164420117E-01  1.250361524240380E+00  7.128900513768037E+00  1.118218488666573E-04
 5.906000000000000E+04  7.454815189818519E+03  1.583029723875165E+03 -3.028855387536645E-01 -1.495078299512277E+00  7.079209846729943E+00  2.727578143524447E-04
 5.906100000000000E+04  6.331151125288780E+03  4.246458126244961E+03 -1.699428051469362E-01 -4.023064743123546E+00  6.011098734886592E+00  3.976844332736124E-04
 5.906200000000000E+04  4.296737510970001E+03  6.299572249276805E+03  1.166149705000149E-02 -5.970642919877986E+00  4.079504426877225E+00  4.585081487454236E-04
 5.906300000000000E+04  1.644482757195652E+03  7.447510621501408E+03  2.084229114033513E-01 -7.058899390950230E+00  1.562795304181775E+00  4.389423358629311E-04
 5.906400000000000E+04 -1.244256975413728E+03  7.525640923498131E+03  3.818427800183359E-01 -7.132465094512363E+00 -1.177396200845212E+00  3.385537275302366E-04
 5.906500000000000E+04 -3.954417570057909E+03  6.522967335602000E+03  4.964756743947724E-01 -6.181326027803085E+00 -3.747912002030904E+00  1.732925024467831E-04
 5.906600000000000E+04 -6.096675244583910E+03  4.583584457194359E+03  5.272830789226450E-01 -4.342027752242204E+00 -5.780080328103141E+00 -2.740188315289025E-05
 5.906700000000000E+04 -7.363175818858783E+03  1.986020172568197E+03  4.648744509830725E-01 -1.878188616620240E+00 -6.982184422366655E+00 -2.261637619378136E-04
 5.906800000000000E+04 -7.571656638828811E+03 -8.965954509482967E+02  3.177381907226834E-01  8.569447402104912E-01 -7.181081853986804E+00 -3.848230430599076E-04
 5.906900000000000E+04 -6.691695613523441E+03 -3.649911668880270E+03  1.110761751440948E-01  3.470712542824106E+00 -6.347142782778543E+00 -4.718111166189167E-04
 5.907000000000000E+04 -4.849310895322437E+03 -5.877747433809349E+03 -1.176249810274078E-01  5.587064533426712E+00 -4.598926715883317E+00 -4.685195394558606E-04
 5.907100000000000E+04 -2.309160708770471E+03 -7.259059273736307E+03 -3.255895773065619E-01  6.900552540617090E+00 -2.186765632371682E+00 -3.733677982439723E-04
 5.907200000000000E+04  5.632421115275192E+02 -7.594325247057080E+03 -4.730753718326637E-01  7.220605184751913E+00  5.426615564902764E-01 -2.026499974000464E-04
 5.907300000000000E+04  3.354006128999962E+03 -6.834603111210170E+03 -5.314024999107082E-01  6.499596083190726E+00  3.195945364260389E+00  1.220296860499270E-05
 5.907400000000000E+04  5.660546267221458E+03 -5.088933584257225E+03 -4.890011368679379E-01  4.840385918659655E+00  5.389757869864439E+00  2.305800210795932E-04
 5.907500000000000E+04  7.149847183033654E+03 -2.608861210684988E+03 -3.540957369472153E-01  2.481937534281491E+00  6.806611745423867E+00  4.107651951723578E-04
 5.907600000000000E+04  7.606783343146351E+03  2.477987549120630E+02 -1.532925063205007E-01 -2.351194597671873E-01  7.241278772116411E+00  5.184739811277220E-04
 5.907700000000000E+04  6.965373651105265E+03  3.068722537501187E+03  7.379867408171228E-02 -2.917996130592342E+00  6.630864515851965E+00  5.339786856827156E-04
 5.907800000000000E+04  5.318350330006538E+03  5.446807045966882E+03  2.828539256811922E-01 -5.178979153782854E+00  5.063983165457191E+00  4.561401471460143E-04
 5.907900000000000E+04  2.903639983438039E+03  7.039109539776578E+03  4.341879553500979E-01 -6.691852939640318E+00  2.767675610641750E+00  3.022980612418921E-04
 5.908000000000000E+04  6.977909731018599E+01  7.616376822486119E+03  5.008862647838641E-01 -7.239138225745082E+00  7.410586223622402E-02  1.039865903280279E-04
 5.908100000000000E+04 -2.774617138239971E+03  7.095973330831147E+03  4.736567545039271E-01 -6.743244981738014E+00 -2.627908330798106E+00 -1.003303791402797E-04
 5.908200000000000E+04 -5.219911879498643E+03  5.553503697498700E+03  3.613778937906053E-01 -5.277126812731059E+00 -4.949288792205905E+00 -2.733987748920010E-04
 5.908300000000000E+04 -6.914432801016215E+03  3.211573392678764E+03  1.878290915978117E-01 -3.053115894891150E+00 -6.556726005590527E+00 -3.860308735302104E-04
 5.908400000000000E+04 -7.614891605718907E+03  4.074569599832830E+02 -1.381922389179280E-02 -3.918209996256890E-01 -7.220267983787386E+00 -4.214559622745234E-04
 5.908500000000000E+04 -7.221069590843659E+03 -2.455548606169979E+03 -2.071776631544546E-01  2.324203312905453E+00 -6.845780125795772E+00 -3.771257236369282E-04
 5.908600000000000E+04 -5.789925439719964E+03 -4.966042089204636E+03 -3.586366011805120E-01  4.705262210934548E+00 -5.487880683469335E+00 -2.644455042920117E-04
 5.908700000000000E+04 -3.527237208845858E+03 -6.763433322611369E+03 -4.428599950645713E-01  6.410022444643372E+00 -3.341766422285003E+00 -1.066557104497158E-04
 5.908800000000000E+04 -7.580529822861912E+02 -7.589514575040124E+03 -4.472588229058672E-01  7.193988540586860E+00 -7.152511978221245E-01  6.519423989510300E-05
 5.908900000000000E+04  2.119830800722558E+03 -7.325418364205140E+03 -3.745039992559304E-01  6.944278101291943E+00  2.015018979465339E+00  2.179782799688397E-04
 5.909000000000000E+04  4.692791379354736E+03 -6.008737401245353E+03 -2.421301004321886E-01  5.695881643669853E+00  4.457114808657193E+00  3.230483143774544E-04
 5.909100000000000E+04  6.590664015219930E+03 -3.828336066626012E+03 -7.889924905392796E-02  3.627055183270064E+00  6.259734231900644E+00  3.621386991420362E-04
 5.909200000000000E+04  7.539969088172061E+03 -1.097497972863587E+03  8.144000307228470E-02  1.034308247170915E+00  7.162648779247028E+00  3.310720132685777E-04
 5.909300000000000E+04  7.403443923822200E+03  1.790873358338898E+03  2.075082799533848E-01 -1.709699039243688E+00  7.034467859243178E+00  2.402296237548506E-04
 5.909400000000000E+04  6.200117255448241E+03  4.420680276220994E+03  2.769056875569758E-01 -4.209532427412829E+00  5.892146344256465E+00  1.116701279939069E-04
 5.909500000000000E+04  4.102904240436010E+03  6.412617883059062E+03  2.804659998888797E-01 -6.104056095236450E+00  3.899178093287018E+00 -2.627912902896509E-05
 5.909600000000000E+04  1.413929535590446E+03  7.479053655441741E+03  2.232772582459095E-01 -7.118924820105557E+00  1.342477461723629E+00 -1.454971867645427E-04
 5.909700000000000E+04 -1.478961308701553E+03  7.465790482397795E+03  1.224992251698241E-01 -7.106739764290363E+00 -1.408896531044143E+00 -2.240176263930774E-04
 5.909800000000000E+04 -4.158251165368930E+03  6.374556395719631E+03  2.773171801455343E-03 -6.068819160019330E+00 -3.957255626854712E+00 -2.501586854655590E-04
 5.909900000000000E+04 -6.237211171922656E+03  4.362858739034603E+03 -1.095435622299780E-01 -4.155211793407137E+00 -5.934187994097218E+00 -2.241253838935927E-04
 5.910000000000000E+04 -7.415922298630470E+03  1.721173126585764E+03 -1.920044084366355E-01 -1.642847150135481E+00 -7.054246069851466E+00 -1.569999693311265E-04
 5.910100000000000E+04 -7.524644103171449E+03 -1.169196895834003E+03 -2.304418381118306E-01  1.104939371792558E+00 -7.156398278390325E+00 -6.757096840008632E-05
 5.910200000000000E+04 -6.548202016426767E+03 -3.891385108012756E+03 -2.213232047480114E-01  3.691414592082201E+00 -6.227108336035637E+00  2.218451744319059E-05
 5.910300000000000E+04 -4.627904747541033E+03 -6.053233915361285E+03 -1.717847121844132E-01  5.744040414792726E+00 -4.401763052666372E+00  9.198210560343230E-05
 5.910400000000000E+04 -2.040837402581532E+03 -7.343784522849845E+03 -9.747533853060575E-02  6.968147168218750E+00 -1.944483624597716E+00  1.275169948722037E-04
 5.910500000000000E+04  8.403266926475618E+02 -7.577846836574076E+03 -1.870655054931826E-02  7.188955356992075E+00  7.904562553934581E-01  1.233800639514506E-04
 5.910600000000000E+04  3.601084172715714E+03 -6.722328437800306E+03  4.435579044415550E-02  6.376091340088702E+00  3.409813198261552E+00  8.409133208727721E-05
 5.910700000000000E+04  5.844654678583752E+03 -4.900680509241552E+03  7.658820951688519E-02  4.647356922639520E+00  5.537732594978376E+00  2.300074697469731E-05
 5.910800000000000E+04  7.248816691549785E+03 -2.374953869133985E+03  7.191721229241951E-02  2.251459156632335E+00  6.869298550251369E+00 -4.095225241415843E-05
 5.910900000000000E+04  7.611968713809239E+03  4.918853733930245E+02  3.532903839670123E-02 -4.676993115107630E-01  7.213807660560246E+00 -8.827160769033479E-05
 5.911000000000000E+04  6.881921285211550E+03  3.287975886701300E+03 -1.817728113308543E-02 -3.120076857194277E+00  6.521790171491780E+00 -1.047196424541539E-04
 5.911100000000000E+04  5.163373084038994E+03  5.611524651227952E+03 -6.805280276688939E-02 -5.325018002054041E+00  4.892065060044646E+00 -8.606567974048323E-05
 5.911200000000000E+04  2.703017142053425E+03  7.128364797484812E+03 -9.494003393274825E-02 -6.765510165246043E+00  2.557851295468912E+00 -3.968640370328540E-05
 5.911300000000000E+04 -1.456483468282244E+02  7.619951089251240E+03 -8.713514014982499E-02 -7.233599675612437E+00 -1.461919348583640E-01  1.794457045606052E-05
 5.911400000000000E+04 -2.972880082920010E+03  7.014944014089248E+03 -4.419125253603760E-02 -6.660546007925366E+00 -2.831509719162844E+00  6.684081913468512E-05
 5.911500000000000E+04 -5.371495343809087E+03  5.399790641674579E+03  2.338574769684883E-02 -5.127298589213625E+00 -5.111224692129446E+00  8.978834602275807E-05
 5.911600000000000E+04 -6.995548571242294E+03  3.006642114493235E+03  9.761266894256143E-02 -2.853536165350205E+00 -6.655919810367593E+00  7.715404008724003E-05
 5.911700000000000E+04 -7.610412786142712E+03  1.801810815391121E+02  1.580877329647899E-01 -1.665287740822772E-01 -7.241574825578157E+00  2.916310564695125E-05
 5.911800000000000E+04 -7.126933773131504E+03 -2.671981080507049E+03  1.871519351839433E-01  2.545923319273900E+00 -6.782526299715874E+00 -4.438959446097109E-05
 5.911900000000000E+04 -5.614572585844169E+03 -5.138206552555923E+03  1.741265052516394E-01  4.891722866487506E+00 -5.344383654324331E+00 -1.265208555382613E-04
 5.912000000000000E+04 -3.291510545887752E+03 -6.862455391712483E+03  1.179774453025225E-01  6.531597869329832E+00 -3.134784420395670E+00 -1.968932923345588E-04
 5.912100000000000E+04 -4.931001842419122E+02 -7.595891300215491E+03  2.800567807825648E-02  7.228588917516653E+00 -4.732444916902372E-01 -2.363849777161667E-04
 5.912200000000000E+04  2.376731810536474E+03 -7.232895352421368E+03 -7.761219489984150E-02  6.882507307930488E+00  2.255429899310658E+00 -2.315874597796927E-04
 5.912300000000000E+04  4.903998762228193E+03 -5.826231079318140E+03 -1.753077389054435E-01  5.544274258902592E+00  4.657207068756942E+00 -1.783554420630227E-04
 5.912400000000000E+04  6.724514692619377E+03 -3.579200888186944E+03 -2.411116832081797E-01  3.408124762463587E+00  6.386029951795445E+00 -8.357131690557243E-05
 5.912500000000000E+04  7.576381672563032E+03 -8.160273682627511E+02 -2.562146681015017E-01  7.829919039117750E-01  7.193730791767494E+00  3.547693406261457E-05
 5.912600000000000E+04  7.337527869347091E+03  2.065132961873077E+03 -2.118528750826698E-01 -1.952544408361679E+00  6.965437336927581E+00  1.542370013070434E-04
 5.912700000000000E+04  6.042962550313008E+03  4.649651130388320E+03 -1.122399916042454E-01 -4.405018960685922E+00  5.735501114171877E+00  2.460662261335709E-04
 5.912800000000000E+04  3.879399992723219E+03  6.566030137189070E+03  2.539406591348582E-02 -6.222551619104030E+00  3.681908648285554E+00  2.883433368118397E-04
 5.912900000000000E+04  1.158173319682647E+03  7.539109049742749E+03  1.739222259449406E-01 -7.144963095120731E+00  1.100262523651288E+00  2.680531186342004E-04
 5.913000000000000E+04 -1.729569467635642E+03  7.429331412500471E+03  3.020301367599634E-01 -7.040558212843192E+00 -1.638738499028789E+00  1.853973536645793E-04
 5.913100000000000E+04 -4.368944864885002E+03  6.252582015352430E+03  3.812151092170769E-01 -5.924588021700735E+00 -4.142210519756375E+00  5.442229714292149E-05
 5.913200000000000E+04 -6.380722697419723E+03  4.177852601310287E+03  3.923641574254405E-01 -3.956961992831360E+00 -6.050979053772314E+00 -9.960993479925038E-05
 5.913300000000000E+04 -7.475631636685606E+03  1.503092248970148E+03  3.302499593966800E-01 -1.419577671885589E+00 -7.090718323663515E+00 -2.455343628536451E-04
 5.913400000000000E+04 -7.495894657594845E+03 -1.387365950277635E+03  2.048046728224590E-01  1.323636576778305E+00 -7.111228500650340E+00 -3.529826352545830E-04
 5.913500000000000E+04 -6.438060512235349E+03 -4.077819428448242E+03  3.891731895950395E-02  3.878498577466128E+00 -6.108282068357979E+00 -3.987849759959016E-04
 5.913600000000000E+04 -4.453788548294912E+03 -6.180870386505479E+03 -1.364848597688548E-01  5.876980503622821E+00 -4.224784230181911E+00 -3.715188386802230E-04
 5.913700000000000E+04 -1.828347929218130E+03 -7.393240612268307E+03 -2.885522523881066E-01  7.030262461842109E+00 -1.730839508179407E+00 -2.733431612274418E-04
 5.913800000000000E+04  1.060213043205211E+03 -7.539672433787225E+03 -3.882517556653762E-01  7.170757517485895E+00  1.014669495306612E+00 -1.192675981636547E-04
 5.913900000000000E+04  3.795448058199404E+03 -6.598499173335952E+03 -4.149256057492094E-01  6.276878028509711E+00  3.615647209827954E+00  6.530557200081462E-05
 5.914000000000000E+04  5.982639188014041E+03 -4.705068627208005E+03 -3.598021471675363E-01  4.476723431644443E+00  5.696119048484129E+00  2.481427823329062E-04
 5.914100000000000E+04  7.305952564165778E+03 -2.132400160486652E+03 -2.285979235028229E-01  2.029917285148095E+00  6.954970175649311E+00  3.949902807371406E-04
 5.914200000000000E+04  7.574266426519152E+03  7.482099453634286E+02 -4.233694539534808E-02 -7.099274295123732E-01  7.209966173878994E+00  4.758642901302361E-04
 5.914300000000000E+04  6.748921080770753E+03  3.520939830073283E+03  1.650869065875500E-01 -3.346668192933951E+00  6.424427082233472E+00  4.718990163953253E-04
 5.914400000000000E+04  4.949285964492106E+03  5.785691167900181E+03  3.531169396293771E-01 -5.499380494061256E+00  4.712504954625936E+00  3.806240381044977E-04
 5.914500000000000E+04  2.435335375133152E+03  7.215993438913597E+03  4.832130423071577E-01 -6.857756749340874E+00  2.322292542308578E+00  2.176087480435076E-04
 5.914600000000000E+04 -4.301526445877068E+02  7.606091855040369E+03  5.275410092430225E-01 -7.226923572524010E+00 -4.005994974293609E-01  1.370953853565008E-05
 5.914700000000000E+04 -3.234164226981444E+03  6.900406046135823E+03  4.752796463479801E-01 -6.555165952790501E+00 -3.063429100362066E+00 -1.913371589382270E-04
 5.914800000000000E+04 -5.573068755664066E+03  5.201199651254784E+03  3.350477294411660E-01 -4.940730976543654E+00 -5.283139788031287E+00 -3.572627323309431E-04
 5.914900000000000E+04 -7.110646342984635E+03  2.753509164928812E+03  1.330796486036900E-01 -2.617027447044727E+00 -6.741325080657428E+00 -4.515497681029513E-04
 5.915000000000000E+04 -7.626218148036832E+03 -9.034795042553631E+01 -9.223033394102899E-02  8.136658674460424E-02 -7.229531233044427E+00 -4.558829082816319E-04
 5.915100000000000E+04 -7.046076864461834E+03 -2.921492202395056E+03 -2.980956012518103E-01  2.766846868725913E+00 -6.678620291530819E+00 -3.695524746149117E-04
 5.915200000000000E+04 -5.453838632325699E+03 -5.333136866487322E+03 -4.457564361459520E-01  5.054174955359774E+00 -5.168236885703139E+00 -2.093114180174531E-04
 5.915300000000000E+04 -3.078333324918616E+03 -6.978828789563705E+03 -5.079069361220589E-01  6.615322793705976E+00 -2.915209580128440E+00 -5.893481174554565E-06
 5.915400000000000E+04 -2.608055019031852E+02 -7.622028813396297E+03 -4.737911014415565E-01  7.226128330015634E+00 -2.426088318080363E-01  2.020235173285351E-04
 5.915500000000000E+04  2.593912256330225E+03 -7.170022664088661E+03 -3.511133820132441E-01  6.798284476611213E+00  2.466191343141406E+00  3.752480618612552E-04
 5.915600000000000E+04  5.075352648549456E+03 -5.687347625639712E+03 -1.644648435876330E-01  5.392188616239784E+00  4.822069926853334E+00  4.815617621520670E-04
 5.915700000000000E+04  6.826297547204422E+03 -3.386775358222759E+03  4.946767167101351E-02  3.208763025171382E+00  6.485758754139572E+00  5.019229848126367E-04
 5.915800000000000E+04  7.594216667838006E+03 -5.990324211166220E+02  2.490973540502129E-01  5.612092065950712E-01  7.216683656663343E+00  4.342068524433392E-04
 5.915900000000000E+04  7.267860595706780E+03  2.274541728643885E+03  3.962410481249683E-01 -2.169543956207173E+00  6.908036270336221E+00  2.936499197969181E-04
 5.916000000000000E+04  5.893639431365781E+03  4.819712540941730E+03  4.638988109598252E-01 -4.589539481335618E+00  5.602840023429839E+00  1.097172585841558E-04
 5.916100000000000E+04  3.669266704706733E+03  6.669169315997529E+03  4.418119524193373E-01 -6.348837579300397E+00  3.488384009085359E+00 -8.015892725074021E-05
 5.916200000000000E+04  9.154363265317630E+02  7.555755225174290E+03  3.384176937765342E-01 -7.192545826997383E+00  8.695401625417744E-01 -2.387429677893954E-04
