# THALASSA - CARTESIAN COORDINATES                                                                                                                                                                      
#================================================================================================================================================================                                       
#                  MJD                 X [km]                 Y [km]                 Z [km]                VX [km]                VY [km]                VZ [km]                                        
 5.520000000000000E+04, 4.147199999999999E+04, 0.000000000000000E+00, 0.000000000000000E+00, 0.000000000000000E+00, 3.077317452727673E+00, 7.251789698310070E-01
 5.523000000000000E+04, 4.101829253668526E+04, 1.608921458236729E+03, 4.084613078482786E+02,-1.397853222184627E-01, 3.104493057716982E+00, 7.313747265611522E-01
 5.526000000000000E+04, 4.065695055859467E+04, 3.026981976333271E+03, 7.790904161094496E+02,-2.792066510616775E-01, 3.115513782265860E+00, 7.337586640180941E-01
 5.529000000000000E+04, 4.042302612542615E+04, 4.534315487316592E+03, 1.173105106054968E+03,-4.295904741068300E-01, 3.105323115222584E+00, 7.313791751971013E-01
 5.532000000000000E+04, 4.029473433824846E+04, 6.208459155255900E+03, 1.604518187207478E+03,-5.865564021986038E-01, 3.072848046421824E+00, 7.239089185777579E-01
 5.535000000000000E+04, 4.020912163837632E+04, 8.091778481609749E+03, 2.080372422168557E+03,-7.450044955041842E-01, 3.020386141735258E+00, 7.116281663148377E-01
 5.538000000000000E+04, 4.002828293827601E+04, 1.031675923823800E+04, 2.633518083456706E+03,-9.102396213252786E-01, 2.950995065712902E+00, 6.947530508421368E-01
 5.541000000000000E+04, 3.960975306688130E+04, 1.289023544148369E+04, 3.269555436877169E+03,-1.083146568155960E+00, 2.868065763555713E+00, 6.738703151969135E-01
 5.544000000000000E+04, 3.886301513597565E+04, 1.565378783256923E+04, 3.954409041482754E+03,-1.257284678054838E+00, 2.777240466261047E+00, 6.505160273257843E-01
 5.547000000000000E+04, 3.779425412954373E+04, 1.836306078909455E+04, 4.628598212042803E+03,-1.422761029276095E+00, 2.686051218056325E+00, 6.268015567129228E-01
 5.550000000000000E+04, 3.639615619588296E+04, 2.091939164360207E+04, 5.264958364404566E+03,-1.582754506324449E+00, 2.597462535200872E+00, 6.036337774103641E-01
 5.553000000000000E+04, 3.469169470166275E+04, 2.324780490183378E+04, 5.840281221353286E+03,-1.742357930703976E+00, 2.511197425705418E+00, 5.810248931594816E-01
 5.556000000000000E+04, 3.283013678416002E+04, 2.519995167300587E+04, 6.315021694766041E+03,-1.897834402841251E+00, 2.429214367744881E+00, 5.592420764659806E-01
 5.559000000000000E+04, 3.101599202685504E+04, 2.669472632189902E+04, 6.673186242975626E+03,-2.043349697426404E+00, 2.352768483578585E+00, 5.381195921160959E-01
 5.562000000000001E+04, 2.935278996880155E+04, 2.784840048514126E+04, 6.952677721354806E+03,-2.179117100990760E+00, 2.275091550413439E+00, 5.159774609990586E-01
 5.565000000000001E+04, 2.779715678686673E+04, 2.889254444726386E+04, 7.212944006861083E+03,-2.309607986970656E+00, 2.183364976391813E+00, 4.902481385334346E-01
 5.568000000000000E+04, 2.636110910041285E+04, 2.992702990068614E+04, 7.475538874577230E+03,-2.429120302369255E+00, 2.075100720526558E+00, 4.609644952253169E-01
 5.571000000000000E+04, 2.505530051288624E+04, 3.099930786908656E+04, 7.745512621619734E+03,-2.530602640235103E+00, 1.953824197113360E+00, 4.292788164588657E-01
 5.574000000000000E+04, 2.372678614372199E+04, 3.222368988671804E+04, 8.042247885085793E+03,-2.616774532307479E+00, 1.816841385849268E+00, 3.941345056906786E-01
 5.577000000000000E+04, 2.218805152428756E+04, 3.365005436228756E+04, 8.374955124613161E+03,-2.692277980117062E+00, 1.662346417631384E+00, 3.544125914283465E-01
 5.580000000000000E+04, 2.032579903460390E+04, 3.521123633477622E+04, 8.731761968483994E+03,-2.759459328738540E+00, 1.494173774545509E+00, 3.106951720003018E-01
 5.583000000000000E+04, 1.821212247571593E+04, 3.672856113168294E+04, 9.076665897841405E+03,-2.816177743017382E+00, 1.325662176911271E+00, 2.664607945402309E-01
 5.586000000000000E+04, 1.584824010232091E+04, 3.809590818680844E+04, 9.384550652873402E+03,-2.866800112549347E+00, 1.159891976770763E+00, 2.229715077733623E-01
 5.589000000000000E+04, 1.319041986417014E+04, 3.924374082515226E+04, 9.630821066710221E+03,-2.917555169629176E+00, 9.922737973474905E-01, 1.794916962431047E-01
 5.592000000000001E+04, 1.032616779867637E+04, 4.007595308053507E+04, 9.784438890698737E+03,-2.970558301618009E+00, 8.232098026125596E-01, 1.359503950702914E-01
 5.595000000000001E+04, 7.488067742456987E+03, 4.051838712774537E+04, 9.830283279098763E+03,-3.024981313334106E+00, 6.585775395544853E-01, 9.306777759071681E-02
 5.598000000000001E+04, 4.866198439477942E+03, 4.060601382029245E+04, 9.789120074479739E+03,-3.078625321465128E+00, 5.001045620891673E-01, 5.090823215101883E-02
 5.601000000000000E+04, 2.425900868395170E+03, 4.047147499206065E+04, 9.700946651737144E+03,-3.127563379520209E+00, 3.371232828634652E-01, 7.289445141510410E-03
 5.604000000000001E+04, 1.935070737922693E+02, 4.023260913826773E+04, 9.596247322748188E+03,-3.164835876184686E+00, 1.695611654721578E-01,-3.704991290691199E-02
 5.607000000000000E+04,-1.756361304063332E+03, 3.999485243459220E+04, 9.498538343260949E+03,-3.184583774755328E+00, 6.431988236077902E-03,-7.937821597547427E-02
 5.610000000000001E+04,-3.504461322230088E+03, 3.984546423411706E+04, 9.420418068320367E+03,-3.183587398829018E+00,-1.501127224497007E-01,-1.190590227349709E-01
 5.613000000000000E+04,-5.275212099989218E+03, 3.980801774750783E+04, 9.357301135328620E+03,-3.160397899204785E+00,-3.059634543166487E-01,-1.579538768433685E-01
 5.616000000000000E+04,-7.229187924120615E+03, 3.983100509083880E+04, 9.295084946817295E+03,-3.116331308711150E+00,-4.638131878498689E-01,-1.971822804216370E-01
 5.619000000000001E+04,-9.336134217669065E+03, 3.984063872665698E+04, 9.222672988737781E+03,-3.056712123536363E+00,-6.158359924538598E-01,-2.350215042759352E-01
 5.622000000000000E+04,-1.157669045865338E+04, 3.975917429156922E+04, 9.124129952810099E+03,-2.987372113602372E+00,-7.590983162170060E-01,-2.705263144450585E-01
 5.625000000000000E+04,-1.404944140466756E+04, 3.946033738962957E+04, 8.965300216605880E+03,-2.911549040184686E+00,-9.023113511818577E-01,-3.054659421523654E-01
 5.628000000000001E+04,-1.675772222432307E+04, 3.881527808089617E+04, 8.711383484378512E+03,-2.831842321333902E+00,-1.051806632340257E+00,-3.411055654603087E-01
 5.631000000000000E+04,-1.950726236897079E+04, 3.777467109703847E+04, 8.350128940272685E+03,-2.752810783815242E+00,-1.205546719363337E+00,-3.772398691075491E-01
 5.634000000000000E+04,-2.207199055740968E+04, 3.639303405745012E+04, 7.901265955301414E+03,-2.677379016017511E+00,-1.359917676101338E+00,-4.135989238713916E-01
 5.637000000000000E+04,-2.440257177811532E+04, 3.474107162476356E+04, 7.390506346348150E+03,-2.600232718344694E+00,-1.519118308883403E+00,-4.513494687230722E-01
 5.640000000000000E+04,-2.647753835612037E+04, 3.292685843443388E+04, 6.851432009842789E+03,-2.515492301646319E+00,-1.682214979382472E+00,-4.898371460396418E-01
 5.643000000000000E+04,-2.820939472239017E+04, 3.113971202522449E+04, 6.335280427436231E+03,-2.424435824166452E+00,-1.838254369812482E+00,-5.260995149159226E-01
 5.646000000000000E+04,-2.959413548870145E+04, 2.954219653976753E+04, 5.879681110204256E+03,-2.329767046848187E+00,-1.977982090095030E+00,-5.576637073353146E-01
 5.649000000000000E+04,-3.080224009180345E+04, 2.815192830697555E+04, 5.475791169914024E+03,-2.226909765997659E+00,-2.100805977475542E+00,-5.841913564825415E-01
 5.652000000000000E+04,-3.199130704346185E+04, 2.691264738887078E+04, 5.099477095295087E+03,-2.112147449979246E+00,-2.207349336245949E+00,-6.059833226035811E-01
 5.655000000000001E+04,-3.324333085498032E+04, 2.576319027217476E+04, 4.732811242672241E+03,-1.987039270570754E+00,-2.296035077400043E+00,-6.232067641875182E-01
 5.658000000000000E+04,-3.455038686233292E+04, 2.467502708240510E+04, 4.374106588644788E+03,-1.859060919891552E+00,-2.364433735104435E+00,-6.357338433760095E-01
 5.661000000000000E+04,-3.598084193075873E+04, 2.346121472282064E+04, 3.982934606142405E+03,-1.725704069776966E+00,-2.420545583499307E+00,-6.450947583117418E-01
 5.664000000000000E+04,-3.755697472033291E+04, 2.190580654979777E+04, 3.509803464718038E+03,-1.582037695283609E+00,-2.473945975138617E+00,-6.527164225605123E-01
 5.666100000000000E+04,-1.192159295467737E+04,-4.119387866844452E+04,-1.023020900509721E+04, 2.879572198144668E+00,-7.485179777589983E-01,-4.791468245617213E-02
